TITLE	
DATA TYPE	
ORIGIN	JASCO
OWNER	
DATE	17/09/28
TIME	16:43:00
SPECTROMETER/DATA SYSTEM	JASCO Corp., V-770, Rev. 1.00
RESOLUTION	
DELTAX	-2
XUNITS	NANOMETERS
YUNITS	REFLECTANCE
FIRSTX	1500
LASTX	700
NPOINTS	401
FIRSTY	35.2258
MAXY	45.1396
MINY	27.9929
XYDATA
1500	35.2258
1498	35.1559
1496	34.7095
1494	35.526
1492	35.5566
1490	35.4696
1488	35.5573
1486	35.9778
1484	35.3366
1482	35.4416
1480	35.6391
1478	35.2976
1476	35.0886
1474	35.6724
1472	35.2907
1470	35.762
1468	35.5718
1466	35.4502
1464	35.6851
1462	36.1707
1460	35.7057
1458	35.8869
1456	35.71
1454	36.0425
1452	35.8649
1450	35.5388
1448	35.8153
1446	36.0152
1444	35.892
1442	36.1298
1440	36.4271
1438	35.8835
1436	35.9379
1434	36.0553
1432	36.3125
1430	36.4026
1428	36.5444
1426	36.2292
1424	36.0314
1422	35.9743
1420	36.3268
1418	36.059
1416	36.5438
1414	36.7718
1412	36.5095
1410	36.5011
1408	36.0769
1406	35.842
1404	36.1958
1402	36.2961
1400	36.6024
1398	36.1498
1396	36.7026
1394	36.5903
1392	36.2201
1390	36.458
1388	36.7248
1386	37.0359
1384	37.2608
1382	36.3687
1380	36.6066
1378	36.3807
1376	37.107
1374	36.7513
1372	36.463
1370	36.5259
1368	36.9253
1366	36.9257
1364	36.6348
1362	37.6356
1360	37.7936
1358	36.9044
1356	37.0295
1354	37.0923
1352	36.7395
1350	36.5748
1348	36.644
1346	36.8469
1344	37.6412
1342	37.6014
1340	37.4879
1338	36.4652
1336	36.9219
1334	37.1348
1332	36.8588
1330	37.642
1328	37.5845
1326	37.2556
1324	37.4502
1322	37.6792
1320	36.9828
1318	36.9325
1316	37.3142
1314	37.1563
1312	37.56
1310	37.2611
1308	36.9875
1306	37.5119
1304	37.1978
1302	37.6578
1300	37.9976
1298	37.694
1296	38.0631
1294	37.7879
1292	37.6698
1290	37.6035
1288	37.1436
1286	37.5658
1284	37.7642
1282	37.5251
1280	37.3923
1278	37.8219
1276	37.5516
1274	37.6854
1272	37.8282
1270	37.7599
1268	38.201
1266	37.8031
1264	37.962
1262	37.9484
1260	37.8518
1258	37.4941
1256	38.016
1254	38.0596
1252	37.8865
1250	37.942
1248	37.3867
1246	38.0379
1244	38.0503
1242	38.7821
1240	37.7204
1238	37.6062
1236	37.7261
1234	38.2164
1232	38.1911
1230	38.5898
1228	37.9272
1226	37.9747
1224	38.1262
1222	38.4671
1220	37.9573
1218	38.4386
1216	38.0684
1214	37.8059
1212	38.5006
1210	38.513
1208	37.7593
1206	38.4122
1204	38.2024
1202	38.0586
1200	38.6501
1198	38.4487
1196	38.1529
1194	38.4691
1192	38.1828
1190	38.4685
1188	38.7369
1186	38.7131
1184	38.1408
1182	38.3878
1180	37.6834
1178	38.3809
1176	38.1481
1174	38.2743
1172	37.8683
1170	38.3538
1168	38.1465
1166	38.2284
1164	38.1457
1162	37.8387
1160	38.1696
1158	38.2308
1156	38.1266
1154	38.1994
1152	38.2852
1150	37.9723
1148	37.759
1146	37.956
1144	38.0843
1142	38.2568
1140	38.1758
1138	37.6029
1136	38.1941
1134	37.6187
1132	37.4771
1130	37.2221
1128	37.5814
1126	36.8913
1124	36.8636
1122	37.0943
1120	36.9277
1118	36.7772
1116	37.1547
1114	37.0142
1112	37.1497
1110	36.2214
1108	36.0609
1106	35.754
1104	36.4221
1102	36.118
1100	36.1793
1098	36.2011
1096	36.087
1094	35.529
1092	34.8232
1090	35.4739
1088	35.1397
1086	35.6149
1084	34.9676
1082	33.7706
1080	34.697
1078	34.9026
1076	34.1539
1074	33.6569
1072	33.7884
1070	33.3022
1068	34.2458
1066	33.4137
1064	33.3143
1062	32.1459
1060	32.2061
1058	32.382
1056	31.6147
1054	31.7954
1052	30.8203
1050	31.2135
1048	31.5263
1046	30.5956
1044	30.5667
1042	30.3014
1040	31.1052
1038	30.498
1036	29.8508
1034	30.5826
1032	29.1945
1030	29.1127
1028	30.4757
1026	29.1788
1024	30.428
1022	29.3782
1020	28.9781
1018	29.9576
1016	30.0948
1014	29.4628
1012	29.5332
1010	28.9642
1008	28.2132
1006	28.8259
1004	28.4394
1002	29.6236
1000	28.9832
998	30.285
996	29.826
994	30.2889
992	29.409
990	29.9166
988	29.2242
986	28.7112
984	28.9521
982	30.2476
980	30.0539
978	29.755
976	28.1265
974	30.1711
972	29.2408
970	31.6577
968	31.0188
966	29.8543
964	29.3492
962	28.6622
960	29.802
958	29.8986
956	30.6126
954	30.6204
952	31.5865
950	32.4114
948	30.0681
946	31.0831
944	30.2344
942	30.6356
940	31.1731
938	30.9039
936	30.5882
934	30.3295
932	30.2264
930	30.5143
928	30.7676
926	33.113
924	31.8983
922	30.5019
920	31.1993
918	30.1638
916	31.1483
914	30.5503
912	31.2049
910	32.4175
908	33.2072
906	31.714
904	30.5923
902	33.2717
900	27.9929
898	36.4886
896	29.5335
894	32.4397
892	32.6203
890	28.3133
888	36.8597
886	32.8874
884	30.8917
882	38.1518
880	30.7466
878	32.4474
876	29.4281
874	32.8438
872	34.6681
870	28.6762
868	34.4143
866	36.4039
864	35.3037
862	30.8116
860	35.4779
858	29.0586
856	34.7899
854	45.1396
852	36.8095
850	39.8055
848	40.326
846	39.5707
844	39.3301
842	39.6449
840	39.3659
838	39.8579
836	39.2541
834	39.3151
832	39.9538
830	39.53
828	39.5916
826	39.5702
824	40.1051
822	39.931
820	39.8961
818	39.7345
816	40.1495
814	39.8158
812	39.2334
810	39.4852
808	39.4238
806	39.5505
804	40.2239
802	40.1319
800	40.0075
798	39.8454
796	39.5727
794	39.5388
792	39.4923
790	39.6186
788	40.0863
786	39.9377
784	39.9651
782	39.5574
780	39.5097
778	39.5765
776	39.6972
774	39.5241
772	40.0434
770	39.9626
768	39.7436
766	39.4567
764	39.4056
762	39.6438
760	39.6312
758	39.8718
756	40.268
754	39.9145
752	39.7376
750	39.4531
748	39.3177
746	39.61
744	39.8326
742	39.9739
740	39.3374
738	39.5932
736	39.9814
734	39.9153
732	39.8035
730	39.5546
728	39.1804
726	39.0645
724	39.2994
722	39.4822
720	39.8607
718	39.8016
716	39.6899
714	39.679
712	39.315
710	39.1796
708	39.2454
706	39.4255
704	39.8259
702	39.9923
700	39.8496



[コメント情報]
試料名	n9
オペレーター	
所属	
コメント	

[データ情報]
作成日時	2017/09/28 16:43
スタート	1500 nm
エンド	700 nm
データ間隔	2 nm
データ数	401     

[測定情報]
機種名	V-770
シリアル番号	A034761801
測光モード	%R
UV/Vis バンド幅	1 nm
NIR バンド幅	4 nm
レスポンス	Fast
走査速度	400 nm/min
光源	自動
光源切換	340 nm
回折格子切換	850 nm

[付属品情報]
付属品名	SLM-737
シリアル番号	B002161126
